# nu energy [GeV]       nu cos(theta) dep. energy [GeV]       rec. cos(theta)  A_eff [m^2] (stat. error)
# low     high          low      high low       high          low      high
1.000e+02 1.175e+02 -1.0 -0.8 1.000e+02 1.995e+02 -1.0 0.2 0.000e+00 0.000e+00
1.175e+02 1.380e+02 -1.0 -0.8 1.000e+02 1.995e+02 -1.0 0.2 0.000e+00 0.000e+00
1.380e+02 1.622e+02 -1.0 -0.8 1.000e+02 1.995e+02 -1.0 0.2 0.000e+00 0.000e+00
1.622e+02 1.905e+02 -1.0 -0.8 1.000e+02 1.995e+02 -1.0 0.2 0.000e+00 0.000e+00
1.905e+02 2.239e+02 -1.0 -0.8 1.000e+02 1.995e+02 -1.0 0.2 0.000e+00 0.000e+00
2.239e+02 2.630e+02 -1.0 -0.8 1.000e+02 1.995e+02 -1.0 0.2 0.000e+00 0.000e+00
2.630e+02 3.090e+02 -1.0 -0.8 1.000e+02 1.995e+02 -1.0 0.2 0.000e+00 0.000e+00
3.090e+02 3.631e+02 -1.0 -0.8 1.000e+02 1.995e+02 -1.0 0.2 0.000e+00 0.000e+00
3.631e+02 4.266e+02 -1.0 -0.8 1.000e+02 1.995e+02 -1.0 0.2 0.000e+00 0.000e+00
4.266e+02 5.012e+02 -1.0 -0.8 1.000e+02 1.995e+02 -1.0 0.2 0.000e+00 0.000e+00
5.012e+02 5.888e+02 -1.0 -0.8 1.000e+02 1.995e+02 -1.0 0.2 0.000e+00 0.000e+00
5.888e+02 6.918e+02 -1.0 -0.8 1.000e+02 1.995e+02 -1.0 0.2 0.000e+00 0.000e+00
6.918e+02 8.128e+02 -1.0 -0.8 1.000e+02 1.995e+02 -1.0 0.2 0.000e+00 0.000e+00
8.128e+02 9.550e+02 -1.0 -0.8 1.000e+02 1.995e+02 -1.0 0.2 0.000e+00 0.000e+00
9.550e+02 1.122e+03 -1.0 -0.8 1.000e+02 1.995e+02 -1.0 0.2 0.000e+00 0.000e+00
1.122e+03 1.318e+03 -1.0 -0.8 1.000e+02 1.995e+02 -1.0 0.2 0.000e+00 0.000e+00
1.318e+03 1.549e+03 -1.0 -0.8 1.000e+02 1.995e+02 -1.0 0.2 0.000e+00 0.000e+00
1.549e+03 1.820e+03 -1.0 -0.8 1.000e+02 1.995e+02 -1.0 0.2 0.000e+00 0.000e+00
1.820e+03 2.138e+03 -1.0 -0.8 1.000e+02 1.995e+02 -1.0 0.2 0.000e+00 0.000e+00
2.138e+03 2.512e+03 -1.0 -0.8 1.000e+02 1.995e+02 -1.0 0.2 0.000e+00 0.000e+00
2.512e+03 2.951e+03 -1.0 -0.8 1.000e+02 1.995e+02 -1.0 0.2 0.000e+00 0.000e+00
2.951e+03 3.467e+03 -1.0 -0.8 1.000e+02 1.995e+02 -1.0 0.2 0.000e+00 0.000e+00
3.467e+03 4.074e+03 -1.0 -0.8 1.000e+02 1.995e+02 -1.0 0.2 0.000e+00 0.000e+00
4.074e+03 4.786e+03 -1.0 -0.8 1.000e+02 1.995e+02 -1.0 0.2 0.000e+00 0.000e+00
4.786e+03 5.623e+03 -1.0 -0.8 1.000e+02 1.995e+02 -1.0 0.2 0.000e+00 0.000e+00
5.623e+03 6.607e+03 -1.0 -0.8 1.000e+02 1.995e+02 -1.0 0.2 0.000e+00 0.000e+00
6.607e+03 7.762e+03 -1.0 -0.8 1.000e+02 1.995e+02 -1.0 0.2 0.000e+00 0.000e+00
7.762e+03 9.120e+03 -1.0 -0.8 1.000e+02 1.995e+02 -1.0 0.2 0.000e+00 0.000e+00
9.120e+03 1.072e+04 -1.0 -0.8 1.000e+02 1.995e+02 -1.0 0.2 0.000e+00 0.000e+00
1.072e+04 1.259e+04 -1.0 -0.8 1.000e+02 1.995e+02 -1.0 0.2 0.000e+00 0.000e+00
1.259e+04 1.479e+04 -1.0 -0.8 1.000e+02 1.995e+02 -1.0 0.2 0.000e+00 0.000e+00
1.479e+04 1.738e+04 -1.0 -0.8 1.000e+02 1.995e+02 -1.0 0.2 0.000e+00 0.000e+00
1.738e+04 2.042e+04 -1.0 -0.8 1.000e+02 1.995e+02 -1.0 0.2 0.000e+00 0.000e+00
2.042e+04 2.399e+04 -1.0 -0.8 1.000e+02 1.995e+02 -1.0 0.2 0.000e+00 0.000e+00
2.399e+04 2.818e+04 -1.0 -0.8 1.000e+02 1.995e+02 -1.0 0.2 0.000e+00 0.000e+00
2.818e+04 3.311e+04 -1.0 -0.8 1.000e+02 1.995e+02 -1.0 0.2 0.000e+00 0.000e+00
3.311e+04 3.890e+04 -1.0 -0.8 1.000e+02 1.995e+02 -1.0 0.2 0.000e+00 0.000e+00
3.890e+04 4.571e+04 -1.0 -0.8 1.000e+02 1.995e+02 -1.0 0.2 0.000e+00 0.000e+00
4.571e+04 5.370e+04 -1.0 -0.8 1.000e+02 1.995e+02 -1.0 0.2 0.000e+00 0.000e+00
5.370e+04 6.310e+04 -1.0 -0.8 1.000e+02 1.995e+02 -1.0 0.2 0.000e+00 0.000e+00
6.310e+04 7.413e+04 -1.0 -0.8 1.000e+02 1.995e+02 -1.0 0.2 0.000e+00 0.000e+00
7.413e+04 8.710e+04 -1.0 -0.8 1.000e+02 1.995e+02 -1.0 0.2 0.000e+00 0.000e+00
8.710e+04 1.023e+05 -1.0 -0.8 1.000e+02 1.995e+02 -1.0 0.2 0.000e+00 0.000e+00
1.023e+05 1.202e+05 -1.0 -0.8 1.000e+02 1.995e+02 -1.0 0.2 0.000e+00 0.000e+00
1.202e+05 1.413e+05 -1.0 -0.8 1.000e+02 1.995e+02 -1.0 0.2 0.000e+00 0.000e+00
1.413e+05 1.660e+05 -1.0 -0.8 1.000e+02 1.995e+02 -1.0 0.2 0.000e+00 0.000e+00
1.660e+05 1.950e+05 -1.0 -0.8 1.000e+02 1.995e+02 -1.0 0.2 0.000e+00 0.000e+00
1.950e+05 2.291e+05 -1.0 -0.8 1.000e+02 1.995e+02 -1.0 0.2 0.000e+00 0.000e+00
2.291e+05 2.692e+05 -1.0 -0.8 1.000e+02 1.995e+02 -1.0 0.2 0.000e+00 0.000e+00
2.692e+05 3.162e+05 -1.0 -0.8 1.000e+02 1.995e+02 -1.0 0.2 0.000e+00 0.000e+00
3.162e+05 3.715e+05 -1.0 -0.8 1.000e+02 1.995e+02 -1.0 0.2 0.000e+00 0.000e+00
3.715e+05 4.365e+05 -1.0 -0.8 1.000e+02 1.995e+02 -1.0 0.2 0.000e+00 0.000e+00
4.365e+05 5.129e+05 -1.0 -0.8 1.000e+02 1.995e+02 -1.0 0.2 0.000e+00 0.000e+00
5.129e+05 6.026e+05 -1.0 -0.8 1.000e+02 1.995e+02 -1.0 0.2 0.000e+00 0.000e+00
6.026e+05 7.079e+05 -1.0 -0.8 1.000e+02 1.995e+02 -1.0 0.2 0.000e+00 0.000e+00
7.079e+05 8.318e+05 -1.0 -0.8 1.000e+02 1.995e+02 -1.0 0.2 0.000e+00 0.000e+00
8.318e+05 9.772e+05 -1.0 -0.8 1.000e+02 1.995e+02 -1.0 0.2 0.000e+00 0.000e+00
9.772e+05 1.148e+06 -1.0 -0.8 1.000e+02 1.995e+02 -1.0 0.2 0.000e+00 0.000e+00
1.148e+06 1.349e+06 -1.0 -0.8 1.000e+02 1.995e+02 -1.0 0.2 0.000e+00 0.000e+00
1.349e+06 1.585e+06 -1.0 -0.8 1.000e+02 1.995e+02 -1.0 0.2 0.000e+00 0.000e+00
1.585e+06 1.862e+06 -1.0 -0.8 1.000e+02 1.995e+02 -1.0 0.2 0.000e+00 0.000e+00
1.862e+06 2.188e+06 -1.0 -0.8 1.000e+02 1.995e+02 -1.0 0.2 0.000e+00 0.000e+00
2.188e+06 2.570e+06 -1.0 -0.8 1.000e+02 1.995e+02 -1.0 0.2 0.000e+00 0.000e+00
2.570e+06 3.020e+06 -1.0 -0.8 1.000e+02 1.995e+02 -1.0 0.2 0.000e+00 0.000e+00
3.020e+06 3.548e+06 -1.0 -0.8 1.000e+02 1.995e+02 -1.0 0.2 0.000e+00 0.000e+00
3.548e+06 4.169e+06 -1.0 -0.8 1.000e+02 1.995e+02 -1.0 0.2 0.000e+00 0.000e+00
4.169e+06 4.898e+06 -1.0 -0.8 1.000e+02 1.995e+02 -1.0 0.2 0.000e+00 0.000e+00
4.898e+06 5.754e+06 -1.0 -0.8 1.000e+02 1.995e+02 -1.0 0.2 0.000e+00 0.000e+00
5.754e+06 6.761e+06 -1.0 -0.8 1.000e+02 1.995e+02 -1.0 0.2 0.000e+00 0.000e+00
6.761e+06 7.943e+06 -1.0 -0.8 1.000e+02 1.995e+02 -1.0 0.2 0.000e+00 0.000e+00
7.943e+06 9.333e+06 -1.0 -0.8 1.000e+02 1.995e+02 -1.0 0.2 0.000e+00 0.000e+00
9.333e+06 1.096e+07 -1.0 -0.8 1.000e+02 1.995e+02 -1.0 0.2 0.000e+00 0.000e+00
1.096e+07 1.288e+07 -1.0 -0.8 1.000e+02 1.995e+02 -1.0 0.2 0.000e+00 0.000e+00
1.288e+07 1.514e+07 -1.0 -0.8 1.000e+02 1.995e+02 -1.0 0.2 0.000e+00 0.000e+00
1.514e+07 1.778e+07 -1.0 -0.8 1.000e+02 1.995e+02 -1.0 0.2 0.000e+00 0.000e+00
1.778e+07 2.089e+07 -1.0 -0.8 1.000e+02 1.995e+02 -1.0 0.2 0.000e+00 0.000e+00
2.089e+07 2.455e+07 -1.0 -0.8 1.000e+02 1.995e+02 -1.0 0.2 0.000e+00 0.000e+00
2.455e+07 2.884e+07 -1.0 -0.8 1.000e+02 1.995e+02 -1.0 0.2 0.000e+00 0.000e+00
2.884e+07 3.388e+07 -1.0 -0.8 1.000e+02 1.995e+02 -1.0 0.2 0.000e+00 0.000e+00
3.388e+07 3.981e+07 -1.0 -0.8 1.000e+02 1.995e+02 -1.0 0.2 0.000e+00 0.000e+00
3.981e+07 4.677e+07 -1.0 -0.8 1.000e+02 1.995e+02 -1.0 0.2 0.000e+00 0.000e+00
4.677e+07 5.495e+07 -1.0 -0.8 1.000e+02 1.995e+02 -1.0 0.2 0.000e+00 0.000e+00
5.495e+07 6.457e+07 -1.0 -0.8 1.000e+02 1.995e+02 -1.0 0.2 0.000e+00 0.000e+00
6.457e+07 7.586e+07 -1.0 -0.8 1.000e+02 1.995e+02 -1.0 0.2 0.000e+00 0.000e+00
7.586e+07 8.913e+07 -1.0 -0.8 1.000e+02 1.995e+02 -1.0 0.2 0.000e+00 0.000e+00
8.913e+07 1.047e+08 -1.0 -0.8 1.000e+02 1.995e+02 -1.0 0.2 0.000e+00 0.000e+00
1.047e+08 1.230e+08 -1.0 -0.8 1.000e+02 1.995e+02 -1.0 0.2 0.000e+00 0.000e+00
1.230e+08 1.445e+08 -1.0 -0.8 1.000e+02 1.995e+02 -1.0 0.2 0.000e+00 0.000e+00
1.445e+08 1.698e+08 -1.0 -0.8 1.000e+02 1.995e+02 -1.0 0.2 0.000e+00 0.000e+00
1.698e+08 1.995e+08 -1.0 -0.8 1.000e+02 1.995e+02 -1.0 0.2 0.000e+00 0.000e+00
1.995e+08 2.344e+08 -1.0 -0.8 1.000e+02 1.995e+02 -1.0 0.2 0.000e+00 0.000e+00
2.344e+08 2.754e+08 -1.0 -0.8 1.000e+02 1.995e+02 -1.0 0.2 0.000e+00 0.000e+00
2.754e+08 3.236e+08 -1.0 -0.8 1.000e+02 1.995e+02 -1.0 0.2 0.000e+00 0.000e+00
3.236e+08 3.802e+08 -1.0 -0.8 1.000e+02 1.995e+02 -1.0 0.2 0.000e+00 0.000e+00
3.802e+08 4.467e+08 -1.0 -0.8 1.000e+02 1.995e+02 -1.0 0.2 0.000e+00 0.000e+00
4.467e+08 5.248e+08 -1.0 -0.8 1.000e+02 1.995e+02 -1.0 0.2 0.000e+00 0.000e+00
5.248e+08 6.166e+08 -1.0 -0.8 1.000e+02 1.995e+02 -1.0 0.2 0.000e+00 0.000e+00
6.166e+08 7.244e+08 -1.0 -0.8 1.000e+02 1.995e+02 -1.0 0.2 0.000e+00 0.000e+00
7.244e+08 8.511e+08 -1.0 -0.8 1.000e+02 1.995e+02 -1.0 0.2 0.000e+00 0.000e+00
8.511e+08 1.000e+09 -1.0 -0.8 1.000e+02 1.995e+02 -1.0 0.2 0.000e+00 0.000e+00
1.000e+02 1.175e+02 -0.8 -0.6 1.000e+02 1.995e+02 -1.0 0.2 0.000e+00 0.000e+00
1.175e+02 1.380e+02 -0.8 -0.6 1.000e+02 1.995e+02 -1.0 0.2 0.000e+00 0.000e+00
1.380e+02 1.622e+02 -0.8 -0.6 1.000e+02 1.995e+02 -1.0 0.2 0.000e+00 0.000e+00
1.622e+02 1.905e+02 -0.8 -0.6 1.000e+02 1.995e+02 -1.0 0.2 0.000e+00 0.000e+00
1.905e+02 2.239e+02 -0.8 -0.6 1.000e+02 1.995e+02 -1.0 0.2 0.000e+00 0.000e+00
2.239e+02 2.630e+02 -0.8 -0.6 1.000e+02 1.995e+02 -1.0 0.2 0.000e+00 0.000e+00
2.630e+02 3.090e+02 -0.8 -0.6 1.000e+02 1.995e+02 -1.0 0.2 0.000e+00 0.000e+00
3.090e+02 3.631e+02 -0.8 -0.6 1.000e+02 1.995e+02 -1.0 0.2 0.000e+00 0.000e+00
3.631e+02 4.266e+02 -0.8 -0.6 1.000e+02 1.995e+02 -1.0 0.2 0.000e+00 0.000e+00
4.266e+02 5.012e+02 -0.8 -0.6 1.000e+02 1.995e+02 -1.0 0.2 0.000e+00 0.000e+00
5.012e+02 5.888e+02 -0.8 -0.6 1.000e+02 1.995e+02 -1.0 0.2 0.000e+00 0.000e+00
5.888e+02 6.918e+02 -0.8 -0.6 1.000e+02 1.995e+02 -1.0 0.2 0.000e+00 0.000e+00
6.918e+02 8.128e+02 -0.8 -0.6 1.000e+02 1.995e+02 -1.0 0.2 0.000e+00 0.000e+00
8.128e+02 9.550e+02 -0.8 -0.6 1.000e+02 1.995e+02 -1.0 0.2 0.000e+00 0.000e+00
9.550e+02 1.122e+03 -0.8 -0.6 1.000e+02 1.995e+02 -1.0 0.2 0.000e+00 0.000e+00
1.122e+03 1.318e+03 -0.8 -0.6 1.000e+02 1.995e+02 -1.0 0.2 0.000e+00 0.000e+00
1.318e+03 1.549e+03 -0.8 -0.6 1.000e+02 1.995e+02 -1.0 0.2 0.000e+00 0.000e+00
1.549e+03 1.820e+03 -0.8 -0.6 1.000e+02 1.995e+02 -1.0 0.2 0.000e+00 0.000e+00
1.820e+03 2.138e+03 -0.8 -0.6 1.000e+02 1.995e+02 -1.0 0.2 0.000e+00 0.000e+00
2.138e+03 2.512e+03 -0.8 -0.6 1.000e+02 1.995e+02 -1.0 0.2 0.000e+00 0.000e+00
2.512e+03 2.951e+03 -0.8 -0.6 1.000e+02 1.995e+02 -1.0 0.2 0.000e+00 0.000e+00
2.951e+03 3.467e+03 -0.8 -0.6 1.000e+02 1.995e+02 -1.0 0.2 0.000e+00 0.000e+00
3.467e+03 4.074e+03 -0.8 -0.6 1.000e+02 1.995e+02 -1.0 0.2 0.000e+00 0.000e+00
4.074e+03 4.786e+03 -0.8 -0.6 1.000e+02 1.995e+02 -1.0 0.2 0.000e+00 0.000e+00
4.786e+03 5.623e+03 -0.8 -0.6 1.000e+02 1.995e+02 -1.0 0.2 0.000e+00 0.000e+00
5.623e+03 6.607e+03 -0.8 -0.6 1.000e+02 1.995e+02 -1.0 0.2 0.000e+00 0.000e+00
6.607e+03 7.762e+03 -0.8 -0.6 1.000e+02 1.995e+02 -1.0 0.2 0.000e+00 0.000e+00
7.762e+03 9.120e+03 -0.8 -0.6 1.000e+02 1.995e+02 -1.0 0.2 0.000e+00 0.000e+00
9.120e+03 1.072e+04 -0.8 -0.6 1.000e+02 1.995e+02 -1.0 0.2 0.000e+00 0.000e+00
1.072e+04 1.259e+04 -0.8 -0.6 1.000e+02 1.995e+02 -1.0 0.2 0.000e+00 0.000e+00
1.259e+04 1.479e+04 -0.8 -0.6 1.000e+02 1.995e+02 -1.0 0.2 0.000e+00 0.000e+00
1.479e+04 1.738e+04 -0.8 -0.6 1.000e+02 1.995e+02 -1.0 0.2 0.000e+00 0.000e+00
1.738e+04 2.042e+04 -0.8 -0.6 1.000e+02 1.995e+02 -1.0 0.2 0.000e+00 0.000e+00
2.042e+04 2.399e+04 -0.8 -0.6 1.000e+02 1.995e+02 -1.0 0.2 0.000e+00 0.000e+00
2.399e+04 2.818e+04 -0.8 -0.6 1.000e+02 1.995e+02 -1.0 0.2 0.000e+00 0.000e+00
2.818e+04 3.311e+04 -0.8 -0.6 1.000e+02 1.995e+02 -1.0 0.2 0.000e+00 0.000e+00
3.311e+04 3.890e+04 -0.8 -0.6 1.000e+02 1.995e+02 -1.0 0.2 0.000e+00 0.000e+00
3.890e+04 4.571e+04 -0.8 -0.6 1.000e+02 1.995e+02 -1.0 0.2 0.000e+00 0.000e+00
4.571e+04 5.370e+04 -0.8 -0.6 1.000e+02 1.995e+02 -1.0 0.2 0.000e+00 0.000e+00
5.370e+04 6.310e+04 -0.8 -0.6 1.000e+02 1.995e+02 -1.0 0.2 0.000e+00 0.000e+00
6.310e+04 7.413e+04 -0.8 -0.6 1.000e+02 1.995e+02 -1.0 0.2 0.000e+00 0.000e+00
7.413e+04 8.710e+04 -0.8 -0.6 1.000e+02 1.995e+02 -1.0 0.2 0.000e+00 0.000e+00
8.710e+04 1.023e+05 -0.8 -0.6 1.000e+02 1.995e+02 -1.0 0.2 0.000e+00 0.000e+00
1.023e+05 1.202e+05 -0.8 -0.6 1.000e+02 1.995e+02 -1.0 0.2 0.000e+00 0.000e+00
1.202e+05 1.413e+05 -0.8 -0.6 1.000e+02 1.995e+02 -1.0 0.2 0.000e+00 0.000e+00
1.413e+05 1.660e+05 -0.8 -0.6 1.000e+02 1.995e+02 -1.0 0.2 0.000e+00 0.000e+00
1.660e+05 1.950e+05 -0.8 -0.6 1.000e+02 1.995e+02 -1.0 0.2 0.000e+00 0.000e+00
1.950e+05 2.291e+05 -0.8 -0.6 1.000e+02 1.995e+02 -1.0 0.2 0.000e+00 0.000e+00
2.291e+05 2.692e+05 -0.8 -0.6 1.000e+02 1.995e+02 -1.0 0.2 0.000e+00 0.000e+00
2.692e+05 3.162e+05 -0.8 -0.6 1.000e+02 1.995e+02 -1.0 0.2 0.000e+00 0.000e+00
3.162e+05 3.715e+05 -0.8 -0.6 1.000e+02 1.995e+02 -1.0 0.2 0.000e+00 0.000e+00
3.715e+05 4.365e+05 -0.8 -0.6 1.000e+02 1.995e+02 -1.0 0.2 0.000e+00 0.000e+00
4.365e+05 5.129e+05 -0.8 -0.6 1.000e+02 1.995e+02 -1.0 0.2 0.000e+00 0.000e+00
5.129e+05 6.026e+05 -0.8 -0.6 1.000e+02 1.995e+02 -1.0 0.2 0.000e+00 0.000e+00
6.026e+05 7.079e+05 -0.8 -0.6 1.000e+02 1.995e+02 -1.0 0.2 0.000e+00 0.000e+00
7.079e+05 8.318e+05 -0.8 -0.6 1.000e+02 1.995e+02 -1.0 0.2 0.000e+00 0.000e+00
8.318e+05 9.772e+05 -0.8 -0.6 1.000e+02 1.995e+02 -1.0 0.2 0.000e+00 0.000e+00
9.772e+05 1.148e+06 -0.8 -0.6 1.000e+02 1.995e+02 -1.0 0.2 0.000e+00 0.000e+00
1.148e+06 1.349e+06 -0.8 -0.6 1.000e+02 1.995e+02 -1.0 0.2 0.000e+00 0.000e+00
1.349e+06 1.585e+06 -0.8 -0.6 1.000e+02 1.995e+02 -1.0 0.2 0.000e+00 0.000e+00
1.585e+06 1.862e+06 -0.8 -0.6 1.000e+02 1.995e+02 -1.0 0.2 0.000e+00 0.000e+00
1.862e+06 2.188e+06 -0.8 -0.6 1.000e+02 1.995e+02 -1.0 0.2 0.000e+00 0.000e+00
2.188e+06 2.570e+06 -0.8 -0.6 1.000e+02 1.995e+02 -1.0 0.2 0.000e+00 0.000e+00
2.570e+06 3.020e+06 -0.8 -0.6 1.000e+02 1.995e+02 -1.0 0.2 0.000e+00 0.000e+00
3.020e+06 3.548e+06 -0.8 -0.6 1.000e+02 1.995e+02 -1.0 0.2 0.000e+00 0.000e+00
3.548e+06 4.169e+06 -0.8 -0.6 1.000e+02 1.995e+02 -1.0 0.2 0.000e+00 0.000e+00
4.169e+06 4.898e+06 -0.8 -0.6 1.000e+02 1.995e+02 -1.0 0.2 0.000e+00 0.000e+00
4.898e+06 5.754e+06 -0.8 -0.6 1.000e+02 1.995e+02 -1.0 0.2 0.000e+00 0.000e+00
5.754e+06 6.761e+06 -0.8 -0.6 1.000e+02 1.995e+02 -1.0 0.2 0.000e+00 0.000e+00
6.761e+06 7.943e+06 -0.8 -0.6 1.000e+02 1.995e+02 -1.0 0.2 0.000e+00 0.000e+00
7.943e+06 9.333e+06 -0.8 -0.6 1.000e+02 1.995e+02 -1.0 0.2 0.000e+00 0.000e+00
9.333e+06 1.096e+07 -0.8 -0.6 1.000e+02 1.995e+02 -1.0 0.2 0.000e+00 0.000e+00
1.096e+07 1.288e+07 -0.8 -0.6 1.000e+02 1.995e+02 -1.0 0.2 0.000e+00 0.000e+00
1.288e+07 1.514e+07 -0.8 -0.6 1.000e+02 1.995e+02 -1.0 0.2 0.000e+00 0.000e+00
1.514e+07 1.778e+07 -0.8 -0.6 1.000e+02 1.995e+02 -1.0 0.2 0.000e+00 0.000e+00
1.778e+07 2.089e+07 -0.8 -0.6 1.000e+02 1.995e+02 -1.0 0.2 0.000e+00 0.000e+00
2.089e+07 2.455e+07 -0.8 -0.6 1.000e+02 1.995e+02 -1.0 0.2 0.000e+00 0.000e+00
2.455e+07 2.884e+07 -0.8 -0.6 1.000e+02 1.995e+02 -1.0 0.2 0.000e+00 0.000e+00
2.884e+07 3.388e+07 -0.8 -0.6 1.000e+02 1.995e+02 -1.0 0.2 0.000e+00 0.000e+00
3.388e+07 3.981e+07 -0.8 -0.6 1.000e+02 1.995e+02 -1.0 0.2 0.000e+00 0.000e+00
3.981e+07 4.677e+07 -0.8 -0.6 1.000e+02 1.995e+02 -1.0 0.2 0.000e+00 0.000e+00
4.677e+07 5.495e+07 -0.8 -0.6 1.000e+02 1.995e+02 -1.0 0.2 0.000e+00 0.000e+00
5.495e+07 6.457e+07 -0.8 -0.6 1.000e+02 1.995e+02 -1.0 0.2 0.000e+00 0.000e+00
6.457e+07 7.586e+07 -0.8 -0.6 1.000e+02 1.995e+02 -1.0 0.2 0.000e+00 0.000e+00
7.586e+07 8.913e+07 -0.8 -0.6 1.000e+02 1.995e+02 -1.0 0.2 0.000e+00 0.000e+00
8.913e+07 1.047e+08 -0.8 -0.6 1.000e+02 1.995e+02 -1.0 0.2 0.000e+00 0.000e+00
1.047e+08 1.230e+08 -0.8 -0.6 1.000e+02 1.995e+02 -1.0 0.2 0.000e+00 0.000e+00
1.230e+08 1.445e+08 -0.8 -0.6 1.000e+02 1.995e+02 -1.0 0.2 0.000e+00 0.000e+00
1.445e+08 1.698e+08 -0.8 -0.6 1.000e+02 1.995e+02 -1.0 0.2 0.000e+00 0.000e+00
1.698e+08 1.995e+08 -0.8 -0.6 1.000e+02 1.995e+02 -1.0 0.2 0.000e+00 0.000e+00
1.995e+08 2.344e+08 -0.8 -0.6 1.000e+02 1.995e+02 -1.0 0.2 0.000e+00 0.000e+00
2.344e+08 2.754e+08 -0.8 -0.6 1.000e+02 1.995e+02 -1.0 0.2 0.000e+00 0.000e+00
2.754e+08 3.236e+08 -0.8 -0.6 1.000e+02 1.995e+02 -1.0 0.2 0.000e+00 0.000e+00
3.236e+08 3.802e+08 -0.8 -0.6 1.000e+02 1.995e+02 -1.0 0.2 0.000e+00 0.000e+00
3.802e+08 4.467e+08 -0.8 -0.6 1.000e+02 1.995e+02 -1.0 0.2 0.000e+00 0.000e+00
4.467e+08 5.248e+08 -0.8 -0.6 1.000e+02 1.995e+02 -1.0 0.2 0.000e+00 0.000e+00
5.248e+08 6.166e+08 -0.8 -0.6 1.000e+02 1.995e+02 -1.0 0.2 0.000e+00 0.000e+00
6.166e+08 7.244e+08 -0.8 -0.6 1.000e+02 1.995e+02 -1.0 0.2 0.000e+00 0.000e+00
7.244e+08 8.511e+08 -0.8 -0.6 1.000e+02 1.995e+02 -1.0 0.2 0.000e+00 0.000e+00
8.511e+08 1.000e+09 -0.8 -0.6 1.000e+02 1.995e+02 -1.0 0.2 0.000e+00 0.000e+00
1.000e+02 1.175e+02 -0.6 -0.4 1.000e+02 1.995e+02 -1.0 0.2 0.000e+00 0.000e+00
1.175e+02 1.380e+02 -0.6 -0.4 1.000e+02 1.995e+02 -1.0 0.2 0.000e+00 0.000e+00
1.380e+02 1.622e+02 -0.6 -0.4 1.000e+02 1.995e+02 -1.0 0.2 0.000e+00 0.000e+00
1.622e+02 1.905e+02 -0.6 -0.4 1.000e+02 1.995e+02 -1.0 0.2 0.000e+00 0.000e+00
1.905e+02 2.239e+02 -0.6 -0.4 1.000e+02 1.995e+02 -1.0 0.2 0.000e+00 0.000e+00
2.239e+02 2.630e+02 -0.6 -0.4 1.000e+02 1.995e+02 -1.0 0.2 0.000e+00 0.000e+00
2.630e+02 3.090e+02 -0.6 -0.4 1.000e+02 1.995e+02 -1.0 0.2 0.000e+00 0.000e+00
3.090e+02 3.631e+02 -0.6 -0.4 1.000e+02 1.995e+02 -1.0 0.2 0.000e+00 0.000e+00
3.631e+02 4.266e+02 -0.6 -0.4 1.000e+02 1.995e+02 -1.0 0.2 0.000e+00 0.000e+00
4.266e+02 5.012e+02 -0.6 -0.4 1.000e+02 1.995e+02 -1.0 0.2 0.000e+00 0.000e+00
5.012e+02 5.888e+02 -0.6 -0.4 1.000e+02 1.995e+02 -1.0 0.2 0.000e+00 0.000e+00
5.888e+02 6.918e+02 -0.6 -0.4 1.000e+02 1.995e+02 -1.0 0.2 0.000e+00 0.000e+00
6.918e+02 8.128e+02 -0.6 -0.4 1.000e+02 1.995e+02 -1.0 0.2 0.000e+00 0.000e+00
8.128e+02 9.550e+02 -0.6 -0.4 1.000e+02 1.995e+02 -1.0 0.2 0.000e+00 0.000e+00
9.550e+02 1.122e+03 -0.6 -0.4 1.000e+02 1.995e+02 -1.0 0.2 0.000e+00 0.000e+00
1.122e+03 1.318e+03 -0.6 -0.4 1.000e+02 1.995e+02 -1.0 0.2 0.000e+00 0.000e+00
1.318e+03 1.549e+03 -0.6 -0.4 1.000e+02 1.995e+02 -1.0 0.2 0.000e+00 0.000e+00
1.549e+03 1.820e+03 -0.6 -0.4 1.000e+02 1.995e+02 -1.0 0.2 0.000e+00 0.000e+00
1.820e+03 2.138e+03 -0.6 -0.4 1.000e+02 1.995e+02 -1.0 0.2 0.000e+00 0.000e+00
2.138e+03 2.512e+03 -0.6 -0.4 1.000e+02 1.995e+02 -1.0 0.2 0.000e+00 0.000e+00
2.512e+03 2.951e+03 -0.6 -0.4 1.000e+02 1.995e+02 -1.0 0.2 0.000e+00 0.000e+00
2.951e+03 3.467e+03 -0.6 -0.4 1.000e+02 1.995e+02 -1.0 0.2 0.000e+00 0.000e+00
3.467e+03 4.074e+03 -0.6 -0.4 1.000e+02 1.995e+02 -1.0 0.2 0.000e+00 0.000e+00
4.074e+03 4.786e+03 -0.6 -0.4 1.000e+02 1.995e+02 -1.0 0.2 0.000e+00 0.000e+00
4.786e+03 5.623e+03 -0.6 -0.4 1.000e+02 1.995e+02 -1.0 0.2 0.000e+00 0.000e+00
5.623e+03 6.607e+03 -0.6 -0.4 1.000e+02 1.995e+02 -1.0 0.2 0.000e+00 0.000e+00
6.607e+03 7.762e+03 -0.6 -0.4 1.000e+02 1.995e+02 -1.0 0.2 0.000e+00 0.000e+00
7.762e+03 9.120e+03 -0.6 -0.4 1.000e+02 1.995e+02 -1.0 0.2 0.000e+00 0.000e+00
9.120e+03 1.072e+04 -0.6 -0.4 1.000e+02 1.995e+02 -1.0 0.2 0.000e+00 0.000e+00
1.072e+04 1.259e+04 -0.6 -0.4 1.000e+02 1.995e+02 -1.0 0.2 0.000e+00 0.000e+00
1.259e+04 1.479e+04 -0.6 -0.4 1.000e+02 1.995e+02 -1.0 0.2 0.000e+00 0.000e+00
1.479e+04 1.738e+04 -0.6 -0.4 1.000e+02 1.995e+02 -1.0 0.2 0.000e+00 0.000e+00
1.738e+04 2.042e+04 -0.6 -0.4 1.000e+02 1.995e+02 -1.0 0.2 0.000e+00 0.000e+00
2.042e+04 2.399e+04 -0.6 -0.4 1.000e+02 1.995e+02 -1.0 0.2 0.000e+00 0.000e+00
2.399e+04 2.818e+04 -0.6 -0.4 1.000e+02 1.995e+02 -1.0 0.2 0.000e+00 0.000e+00
2.818e+04 3.311e+04 -0.6 -0.4 1.000e+02 1.995e+02 -1.0 0.2 0.000e+00 0.000e+00
3.311e+04 3.890e+04 -0.6 -0.4 1.000e+02 1.995e+02 -1.0 0.2 0.000e+00 0.000e+00
3.890e+04 4.571e+04 -0.6 -0.4 1.000e+02 1.995e+02 -1.0 0.2 0.000e+00 0.000e+00
4.571e+04 5.370e+04 -0.6 -0.4 1.000e+02 1.995e+02 -1.0 0.2 0.000e+00 0.000e+00
5.370e+04 6.310e+04 -0.6 -0.4 1.000e+02 1.995e+02 -1.0 0.2 0.000e+00 0.000e+00
6.310e+04 7.413e+04 -0.6 -0.4 1.000e+02 1.995e+02 -1.0 0.2 0.000e+00 0.000e+00
7.413e+04 8.710e+04 -0.6 -0.4 1.000e+02 1.995e+02 -1.0 0.2 0.000e+00 0.000e+00
8.710e+04 1.023e+05 -0.6 -0.4 1.000e+02 1.995e+02 -1.0 0.2 0.000e+00 0.000e+00
1.023e+05 1.202e+05 -0.6 -0.4 1.000e+02 1.995e+02 -1.0 0.2 0.000e+00 0.000e+00
1.202e+05 1.413e+05 -0.6 -0.4 1.000e+02 1.995e+02 -1.0 0.2 0.000e+00 0.000e+00
1.413e+05 1.660e+05 -0.6 -0.4 1.000e+02 1.995e+02 -1.0 0.2 0.000e+00 0.000e+00
1.660e+05 1.950e+05 -0.6 -0.4 1.000e+02 1.995e+02 -1.0 0.2 0.000e+00 0.000e+00
1.950e+05 2.291e+05 -0.6 -0.4 1.000e+02 1.995e+02 -1.0 0.2 0.000e+00 0.000e+00
2.291e+05 2.692e+05 -0.6 -0.4 1.000e+02 1.995e+02 -1.0 0.2 0.000e+00 0.000e+00
2.692e+05 3.162e+05 -0.6 -0.4 1.000e+02 1.995e+02 -1.0 0.2 0.000e+00 0.000e+00
